# Altitude (km), Pressure(atm), Temperature(K), [VMRs:] H2O, CO, SO2, HF, HCL, OCS, H2S, He
1.00000e+02 2.63000e-05 1.70000e+02 3.00000e-06 9.63000e-01 1.00000e-03 3.00000e-08 5.00000e-09 5.00000e-07 1.00000e-08 3.50000e-02 2.00000e-06 4.50000e-05
9.90000e+01 3.51000e-05 1.71500e+02 3.00000e-06 9.63000e-01 9.60000e-04 3.00000e-08 5.00000e-09 5.00000e-07 1.00000e-08 3.50000e-02 2.00000e-06 4.50000e-05
9.80000e+01 4.39000e-05 1.73000e+02 3.00000e-06 9.63000e-01 9.20000e-04 3.00000e-08 5.00000e-09 5.00000e-07 1.00000e-08 3.50000e-02 2.00000e-06 4.50000e-05
9.70000e+01 5.70000e-05 1.82830e+02 3.00000e-06 9.63000e-01 8.80000e-04 3.00000e-08 5.00000e-09 5.00000e-07 1.00000e-08 3.50000e-02 2.00000e-06 4.50000e-05
9.60000e+01 7.01000e-05 1.92661e+02 3.00000e-06 9.63000e-01 8.40000e-04 3.00000e-08 5.00000e-09 5.00000e-07 1.00000e-08 3.50000e-02 2.00000e-06 4.50000e-05
9.50000e+01 8.95000e-05 1.90482e+02 3.00000e-06 9.64000e-01 8.00000e-04 3.00000e-08 5.00000e-09 5.00000e-07 1.00000e-08 3.50000e-02 2.00000e-06 4.50000e-05
9.40000e+01 1.14730e-04 1.88125e+02 3.00000e-06 9.64000e-01 7.60000e-04 3.00000e-08 5.00000e-09 5.00000e-07 1.00000e-08 3.50000e-02 2.00000e-06 4.50000e-05
9.30000e+01 1.47280e-04 1.86379e+02 3.00000e-06 9.64000e-01 7.21000e-04 3.00000e-08 5.00000e-09 5.00000e-07 1.00000e-08 3.50000e-02 2.00000e-06 4.50000e-05
9.20000e+01 1.89160e-04 1.85297e+02 3.00000e-06 9.64000e-01 6.81000e-04 3.00000e-08 5.00000e-09 5.00000e-07 1.00000e-08 3.50000e-02 2.00000e-06 4.50000e-05
9.10000e+01 2.43100e-04 1.84165e+02 3.00000e-06 9.64000e-01 6.41000e-04 3.00000e-08 5.00000e-09 5.00000e-07 1.00000e-08 3.50000e-02 2.00000e-06 4.50000e-05
9.00000e+01 3.12670e-04 1.83256e+02 3.00000e-06 9.64000e-01 6.01000e-04 3.00000e-08 5.00000e-09 5.00000e-07 1.00000e-08 3.50000e-02 2.00000e-06 4.50000e-05
8.90000e+01 4.02670e-04 1.82298e+02 3.00000e-06 9.64000e-01 5.61000e-04 3.00000e-08 5.00000e-09 5.00000e-07 1.00000e-08 3.50000e-02 2.00000e-06 4.50000e-05
8.80000e+01 5.22980e-04 1.75360e+02 3.00000e-06 9.64000e-01 5.21000e-04 3.00000e-08 5.00000e-09 5.00000e-07 1.00000e-08 3.50000e-02 2.00000e-06 4.50000e-05
8.70000e+01 6.84530e-04 1.70639e+02 3.00000e-06 9.64000e-01 4.81000e-04 3.00000e-08 5.00000e-09 5.00000e-07 1.00000e-08 3.50000e-02 2.00000e-06 4.50000e-05
8.60000e+01 8.95120e-04 1.74547e+02 3.00000e-06 9.64000e-01 4.41000e-04 3.00000e-08 5.00000e-09 5.00000e-07 1.00000e-08 3.50000e-02 2.00000e-06 4.50000e-05
8.50000e+01 1.16230e-03 1.81403e+02 3.00000e-06 9.65000e-01 4.01000e-04 3.00000e-08 5.00000e-09 5.00000e-07 1.00000e-08 3.50000e-02 2.00000e-06 4.50000e-05
8.40000e+01 1.49500e-03 1.88355e+02 3.00000e-06 9.65000e-01 3.61000e-04 3.00000e-08 5.00000e-09 5.00000e-07 1.00000e-08 3.50000e-02 2.00000e-06 4.50000e-05
8.30000e+01 1.90850e-03 1.93991e+02 3.00000e-06 9.65000e-01 3.21000e-04 3.00000e-08 5.00000e-09 5.00000e-07 1.00000e-08 3.50000e-02 2.00000e-06 4.50000e-05
8.20000e+01 2.42560e-03 1.96711e+02 3.00000e-06 9.65000e-01 2.81000e-04 3.00000e-08 5.00000e-09 5.00000e-07 1.00000e-08 3.50000e-02 2.00000e-06 4.50000e-05
8.10000e+01 3.07260e-03 1.97954e+02 3.00000e-06 9.65000e-01 2.42000e-04 3.00000e-08 5.00000e-09 5.00000e-07 1.00000e-08 3.50000e-02 2.00000e-06 4.50000e-05
8.00000e+01 3.87870e-03 1.99112e+02 3.00000e-06 9.65000e-01 2.02000e-04 3.00000e-08 5.00000e-09 5.00000e-07 1.00000e-08 3.50000e-02 2.00000e-06 4.50000e-05
7.90000e+01 4.88000e-03 2.00888e+02 3.00000e-06 9.65000e-01 1.62000e-04 3.00000e-08 5.00000e-09 5.00000e-07 1.00000e-08 3.50000e-02 2.00000e-06 4.50000e-05
7.80000e+01 6.15090e-03 2.03843e+02 3.00000e-06 9.65000e-01 1.22000e-04 3.00000e-08 5.00000e-09 5.00000e-07 1.00000e-08 3.50000e-02 2.00000e-06 4.50000e-05
7.70000e+01 7.69550e-03 2.08015e+02 3.00000e-06 9.65000e-01 8.18000e-05 3.00000e-08 5.00000e-09 5.00000e-07 1.00000e-08 3.50000e-02 2.00000e-06 4.50000e-05
7.60000e+01 9.60320e-03 2.11910e+02 3.00000e-06 9.65000e-01 4.19000e-05 3.00000e-08 5.00000e-09 5.00000e-07 1.00000e-08 3.50000e-02 2.00000e-06 4.50000e-05
7.50000e+01 1.19390e-02 2.14575e+02 3.00000e-06 9.65000e-01 2.00000e-06 3.00000e-08 5.00000e-09 5.00000e-07 1.00000e-08 3.50000e-02 2.00000e-06 4.50000e-05
7.40000e+01 1.47850e-02 2.17911e+02 3.00000e-06 9.65000e-01 6.80000e-06 3.00000e-08 5.00000e-09 5.00000e-07 1.00000e-08 3.50000e-02 2.00000e-06 4.50000e-05
7.30000e+01 1.82560e-02 2.20905e+02 3.00000e-06 9.65000e-01 1.16000e-05 3.00000e-08 5.00000e-09 5.00000e-07 1.00000e-08 3.50000e-02 2.00000e-06 4.50000e-05
7.20000e+01 2.25070e-02 2.21678e+02 3.00000e-06 9.65000e-01 1.64000e-05 3.00000e-08 5.00000e-09 5.00000e-07 1.00000e-08 3.50000e-02 2.00000e-06 4.50000e-05
7.10000e+01 2.76920e-02 2.25459e+02 3.00000e-06 9.65000e-01 2.12000e-05 3.00000e-08 5.00000e-09 5.00000e-07 1.00000e-08 3.50000e-02 2.00000e-06 4.50000e-05
7.00000e+01 3.39560e-02 2.29305e+02 3.00000e-06 9.65000e-01 2.60000e-05 3.00000e-08 5.00000e-09 5.00000e-07 1.00000e-08 3.50000e-02 2.00000e-06 4.50000e-05
6.90000e+01 4.14790e-02 2.32897e+02 3.00000e-06 9.65000e-01 3.08000e-05 4.20000e-08 5.00000e-09 5.00000e-07 1.00000e-08 3.50000e-02 2.00000e-06 4.50000e-05
6.80000e+01 5.05650e-02 2.35861e+02 3.00000e-06 9.65000e-01 3.56000e-05 5.87000e-08 5.00000e-09 5.00000e-07 1.00000e-08 3.50000e-02 2.00000e-06 4.50000e-05
6.70000e+01 6.14040e-02 2.40823e+02 3.00000e-06 9.65000e-01 4.04000e-05 8.20000e-08 5.00000e-09 5.00000e-07 1.00000e-08 3.50000e-02 2.00000e-06 4.50000e-05
6.60000e+01 7.43400e-02 2.44785e+02 3.00000e-06 9.65000e-01 4.52000e-05 1.15000e-07 5.00000e-09 5.00000e-07 1.00000e-08 3.50000e-02 2.00000e-06 4.50000e-05
6.50000e+01 8.96290e-02 2.50440e+02 3.00000e-06 9.65000e-01 5.00000e-05 1.60000e-07 5.00000e-09 5.00000e-07 1.00000e-08 3.50000e-02 2.00000e-06 4.50000e-05
6.40000e+01 1.07600e-01 2.56419e+02 4.59000e-06 9.65000e-01 4.92000e-05 2.24000e-07 5.00000e-09 5.00000e-07 1.00000e-08 3.50000e-02 2.00000e-06 4.50000e-05
6.30000e+01 1.28890e-01 2.57859e+02 6.18000e-06 9.65000e-01 4.85000e-05 3.13000e-07 5.00000e-09 5.00000e-07 1.00000e-08 3.50000e-02 2.00000e-06 4.50000e-05
6.20000e+01 1.54020e-01 2.62406e+02 7.76000e-06 9.65000e-01 4.77000e-05 4.38000e-07 5.00000e-09 5.00000e-07 1.00000e-08 3.50000e-02 2.00000e-06 4.50000e-05
6.10000e+01 1.83520e-01 2.66399e+02 9.35000e-06 9.65000e-01 4.69000e-05 6.12000e-07 5.00000e-09 5.00000e-07 1.00000e-08 3.50000e-02 2.00000e-06 4.50000e-05
6.00000e+01 2.18100e-01 2.70639e+02 1.09000e-05 9.65000e-01 4.62000e-05 8.55000e-07 5.00000e-09 5.00000e-07 1.00000e-08 3.50000e-02 2.00000e-06 4.50000e-05
5.90000e+01 2.58500e-01 2.75743e+02 1.25000e-05 9.65000e-01 4.54000e-05 1.20000e-06 5.00000e-09 5.00000e-07 1.00000e-08 3.50000e-02 2.00000e-06 4.50000e-05
5.80000e+01 3.05200e-01 2.82015e+02 1.41000e-05 9.65000e-01 4.46000e-05 1.67000e-06 5.00000e-09 5.00000e-07 1.00000e-08 3.50000e-02 2.00000e-06 4.50000e-05
5.70000e+01 3.59520e-01 2.84341e+02 1.57000e-05 9.65000e-01 4.38000e-05 2.34000e-06 5.00000e-09 5.00000e-07 1.00000e-08 3.50000e-02 2.00000e-06 4.50000e-05
5.60000e+01 4.22230e-01 2.93471e+02 1.73000e-05 9.65000e-01 4.31000e-05 3.27000e-06 5.00000e-09 5.00000e-07 1.00000e-08 3.50000e-02 2.00000e-06 4.50000e-05
5.50000e+01 4.93120e-01 3.03655e+02 1.89000e-05 9.65000e-01 4.23000e-05 4.56000e-06 5.00000e-09 5.00000e-07 1.00000e-08 3.50000e-02 2.00000e-06 4.50000e-05
5.40000e+01 5.73050e-01 3.13920e+02 2.05000e-05 9.65000e-01 4.15000e-05 6.38000e-06 5.00000e-09 5.00000e-07 1.00000e-08 3.50000e-02 2.00000e-06 4.50000e-05
5.30000e+01 6.62740e-01 3.24104e+02 2.21000e-05 9.65000e-01 4.08000e-05 8.92000e-06 5.00000e-09 5.00000e-07 1.00000e-08 3.50000e-02 2.00000e-06 4.50000e-05
5.20000e+01 7.63170e-01 3.32628e+02 2.36000e-05 9.65000e-01 4.00000e-05 1.25000e-05 5.00000e-09 5.00000e-07 1.00000e-08 3.50000e-02 2.00000e-06 4.50000e-05
5.10000e+01 8.75830e-01 3.41891e+02 2.52000e-05 9.65000e-01 3.92000e-05 1.74000e-05 5.00000e-09 5.00000e-07 1.00000e-08 3.50000e-02 2.00000e-06 4.50000e-05
5.00000e+01 1.00140e+00 3.50290e+02 2.68000e-05 9.65000e-01 3.85000e-05 2.44000e-05 5.00000e-09 5.00000e-07 1.00000e-08 3.50000e-02 2.00000e-06 4.50000e-05
4.90000e+01 1.10470e+00 3.60586e+02 2.84000e-05 9.65000e-01 3.77000e-05 3.41000e-05 5.00000e-09 5.00000e-07 1.00000e-08 3.50000e-02 2.00000e-06 4.50000e-05
4.80000e+01 1.35740e+00 3.66400e+02 3.00000e-05 9.65000e-01 3.69000e-05 4.76000e-05 5.00000e-09 5.00000e-07 1.00000e-08 3.50000e-02 2.00000e-06 4.50000e-05
4.70000e+01 1.53600e+00 3.73100e+02 3.00000e-05 9.65000e-01 3.62000e-05 6.65000e-05 5.00000e-09 5.00000e-07 1.00000e-08 3.50000e-02 2.00000e-06 4.50000e-05
4.60000e+01 1.73350e+00 3.79700e+02 3.00000e-05 9.65000e-01 3.54000e-05 9.30000e-05 5.00000e-09 5.00000e-07 1.00000e-08 3.50000e-02 2.00000e-06 4.50000e-05
4.50000e+01 1.95360e+00 3.85400e+02 3.00000e-05 9.65000e-01 3.46000e-05 1.30000e-04 5.00000e-09 5.00000e-07 1.00000e-08 3.50000e-02 2.00000e-06 4.50000e-05
4.40000e+01 2.19740e+00 3.91200e+02 3.00000e-05 9.65000e-01 3.38000e-05 1.30000e-04 5.00000e-09 5.00000e-07 1.62000e-08 3.50000e-02 2.00000e-06 4.50000e-05
4.30000e+01 2.46690e+00 3.97100e+02 3.00000e-05 9.65000e-01 3.31000e-05 1.30000e-04 5.00000e-09 5.00000e-07 2.63000e-08 3.50000e-02 2.00000e-06 4.50000e-05
4.20000e+01 2.76600e+00 4.03500e+02 3.00000e-05 9.65000e-01 3.23000e-05 1.30000e-04 5.00000e-09 5.00000e-07 4.26000e-08 3.50000e-02 2.00000e-06 4.50000e-05
4.10000e+01 3.09480e+00 4.10000e+02 3.00000e-05 9.65000e-01 3.15000e-05 1.30000e-04 5.00000e-09 5.00000e-07 6.91000e-08 3.50000e-02 2.00000e-06 4.50000e-05
4.00000e+01 3.45610e+00 4.17600e+02 3.00000e-05 9.65000e-01 3.08000e-05 1.30000e-04 5.00000e-09 5.00000e-07 1.12000e-07 3.50000e-02 2.00000e-06 4.50000e-05
3.90000e+01 3.85290e+00 4.25100e+02 3.00000e-05 9.65000e-01 3.00000e-05 1.30000e-04 5.00000e-09 5.00000e-07 1.81000e-07 3.50000e-02 2.00000e-06 4.50000e-05
3.80000e+01 4.28630e+00 4.32500e+02 3.00000e-05 9.65000e-01 2.92000e-05 1.30000e-04 5.00000e-09 5.00000e-07 2.94000e-07 3.50000e-02 2.00000e-06 4.50000e-05
3.70000e+01 4.76010e+00 4.39900e+02 3.00000e-05 9.65000e-01 2.85000e-05 1.30000e-04 5.00000e-09 5.00000e-07 4.77000e-07 3.50000e-02 2.00000e-06 4.50000e-05
3.60000e+01 5.27740e+00 4.48000e+02 3.00000e-05 9.65000e-01 2.77000e-05 1.30000e-04 5.00000e-09 5.00000e-07 7.72000e-07 3.50000e-02 2.00000e-06 4.50000e-05
3.50000e+01 5.84110e+00 4.55500e+02 3.00000e-05 9.65000e-01 2.69000e-05 1.30000e-04 5.00000e-09 5.00000e-07 1.25000e-06 3.50000e-02 2.00000e-06 4.50000e-05
3.40000e+01 6.45310e+00 4.63400e+02 3.00000e-05 9.65000e-01 2.62000e-05 1.30000e-04 5.00000e-09 5.00000e-07 2.03000e-06 3.50000e-02 2.00000e-06 4.50000e-05
3.30000e+01 7.11850e+00 4.71700e+02 3.00000e-05 9.65000e-01 2.54000e-05 1.30000e-04 5.00000e-09 5.00000e-07 3.29000e-06 3.50000e-02 2.00000e-06 4.50000e-05
3.20000e+01 7.83810e+00 4.79900e+02 3.00000e-05 9.65000e-01 2.46000e-05 1.30000e-04 5.00000e-09 5.00000e-07 5.33000e-06 3.50000e-02 2.00000e-06 4.50000e-05
3.10000e+01 8.61700e+00 4.88300e+02 3.00000e-05 9.65000e-01 2.38000e-05 1.30000e-04 5.00000e-09 5.00000e-07 8.64000e-06 3.50000e-02 2.00000e-06 4.50000e-05
3.00000e+01 9.45800e+00 4.96900e+02 3.00000e-05 9.65000e-01 2.31000e-05 1.30000e-04 5.00000e-09 5.00000e-07 1.40000e-05 3.50000e-02 2.00000e-06 4.50000e-05
2.90000e+01 1.03650e+01 5.05600e+02 3.00000e-05 9.65000e-01 2.23000e-05 1.30000e-04 5.00000e-09 5.00000e-07 1.40000e-05 3.50000e-02 2.00000e-06 4.50000e-05
2.80000e+01 1.13430e+01 5.13800e+02 3.00000e-05 9.65000e-01 2.15000e-05 1.30000e-04 5.00000e-09 5.00000e-07 1.40000e-05 3.50000e-02 2.00000e-06 4.50000e-05
2.70000e+01 1.23990e+01 5.22300e+02 3.00000e-05 9.65000e-01 2.08000e-05 1.30000e-04 5.00000e-09 5.00000e-07 1.40000e-05 3.50000e-02 2.00000e-06 4.50000e-05
2.60000e+01 1.35240e+01 5.30700e+02 3.00000e-05 9.65000e-01 2.00000e-05 1.30000e-04 5.00000e-09 5.00000e-07 1.40000e-05 3.50000e-02 2.00000e-06 4.50000e-05
2.50000e+01 1.47380e+01 5.39200e+02 3.00000e-05 9.65000e-01 2.00000e-05 1.30000e-04 5.00000e-09 5.00000e-07 1.40000e-05 3.50000e-02 2.00000e-06 4.50000e-05
2.40000e+01 1.60410e+01 5.47500e+02 3.00000e-05 9.65000e-01 2.00000e-05 1.30000e-04 5.00000e-09 5.00000e-07 1.40000e-05 3.50000e-02 2.00000e-06 4.50000e-05
2.30000e+01 1.74330e+01 5.56000e+02 3.00000e-05 9.65000e-01 2.00000e-05 1.30000e-04 5.00000e-09 5.00000e-07 1.40000e-05 3.50000e-02 2.00000e-06 4.50000e-05
2.20000e+01 1.89240e+01 5.64300e+02 3.00000e-05 9.65000e-01 2.00000e-05 1.30000e-04 5.00000e-09 5.00000e-07 1.40000e-05 3.50000e-02 2.00000e-06 4.50000e-05
2.10000e+01 2.05230e+01 5.72400e+02 3.00000e-05 9.65000e-01 2.00000e-05 1.30000e-04 5.00000e-09 5.00000e-07 1.40000e-05 3.50000e-02 2.00000e-06 4.50000e-05
2.00000e+01 2.22310e+01 5.80700e+02 3.00000e-05 9.65000e-01 2.00000e-05 1.30000e-04 5.00000e-09 5.00000e-07 1.40000e-05 3.50000e-02 2.00000e-06 4.50000e-05
1.90000e+01 2.40470e+01 5.89300e+02 3.00000e-05 9.65000e-01 2.00000e-05 1.30000e-04 5.00000e-09 5.00000e-07 1.40000e-05 3.50000e-02 2.00000e-06 4.50000e-05
1.80000e+01 2.59920e+01 5.97100e+02 3.00000e-05 9.65000e-01 2.00000e-05 1.30000e-04 5.00000e-09 5.00000e-07 1.40000e-05 3.50000e-02 2.00000e-06 4.50000e-05
1.70000e+01 2.80650e+01 6.05200e+02 3.00000e-05 9.65000e-01 2.00000e-05 1.30000e-04 5.00000e-09 5.00000e-07 1.40000e-05 3.50000e-02 2.00000e-06 4.50000e-05
1.60000e+01 3.02670e+01 6.13300e+02 3.00000e-05 9.65000e-01 2.00000e-05 1.30000e-04 5.00000e-09 5.00000e-07 1.40000e-05 3.50000e-02 2.00000e-06 4.50000e-05
1.50000e+01 3.26160e+01 6.20800e+02 3.00000e-05 9.65000e-01 2.00000e-05 1.30000e-04 5.00000e-09 5.00000e-07 1.40000e-05 3.50000e-02 2.00000e-06 4.50000e-05
1.40000e+01 3.51140e+01 6.28100e+02 3.00000e-05 9.65000e-01 2.00000e-05 1.30000e-04 5.00000e-09 5.00000e-07 1.40000e-05 3.50000e-02 2.00000e-06 4.50000e-05
1.30000e+01 3.77690e+01 6.35500e+02 3.00000e-05 9.65000e-01 2.00000e-05 1.30000e-04 5.00000e-09 5.00000e-07 1.40000e-05 3.50000e-02 2.00000e-06 4.50000e-05
1.20000e+01 4.05920e+01 6.43200e+02 3.00000e-05 9.65000e-01 2.00000e-05 1.30000e-04 5.00000e-09 5.00000e-07 1.40000e-05 3.50000e-02 2.00000e-06 4.50000e-05
1.10000e+01 4.35930e+01 6.50600e+02 3.00000e-05 9.65000e-01 2.00000e-05 1.30000e-04 5.00000e-09 5.00000e-07 1.40000e-05 3.50000e-02 2.00000e-06 4.50000e-05
1.00000e+01 4.67820e+01 6.58200e+02 3.00000e-05 9.65000e-01 2.00000e-05 1.30000e-04 5.00000e-09 5.00000e-07 1.40000e-05 3.50000e-02 2.00000e-06 4.50000e-05
9.00000e+00 5.01580e+01 6.65800e+02 3.00000e-05 9.65000e-01 2.00000e-05 1.30000e-04 5.00000e-09 5.00000e-07 1.40000e-05 3.50000e-02 2.00000e-06 4.50000e-05
8.00000e+00 5.37410e+01 6.73600e+02 3.00000e-05 9.65000e-01 2.00000e-05 1.30000e-04 5.00000e-09 5.00000e-07 1.40000e-05 3.50000e-02 2.00000e-06 4.50000e-05
7.00000e+00 5.75320e+01 6.81100e+02 3.00000e-05 9.65000e-01 2.00000e-05 1.30000e-04 5.00000e-09 5.00000e-07 1.40000e-05 3.50000e-02 2.00000e-06 4.50000e-05
6.00000e+00 6.15500e+01 6.88800e+02 3.00000e-05 9.65000e-01 2.00000e-05 1.30000e-04 5.00000e-09 5.00000e-07 1.40000e-05 3.50000e-02 2.00000e-06 4.50000e-05
5.00000e+00 6.57950e+01 6.96800e+02 3.00000e-05 9.65000e-01 2.00000e-05 1.30000e-04 5.00000e-09 5.00000e-07 1.40000e-05 3.50000e-02 2.00000e-06 4.50000e-05
4.00000e+00 7.02860e+01 7.04600e+02 3.00000e-05 9.65000e-01 2.00000e-05 1.30000e-04 5.00000e-09 5.00000e-07 1.40000e-05 3.50000e-02 2.00000e-06 4.50000e-05
3.00000e+00 7.50350e+01 7.12400e+02 3.00000e-05 9.65000e-01 2.00000e-05 1.30000e-04 5.00000e-09 5.00000e-07 1.40000e-05 3.50000e-02 2.00000e-06 4.50000e-05
2.00000e+00 8.00490e+01 7.20200e+02 3.00000e-05 9.65000e-01 2.00000e-05 1.30000e-04 5.00000e-09 5.00000e-07 1.40000e-05 3.50000e-02 2.00000e-06 4.50000e-05
1.00000e+00 8.53410e+01 7.27700e+02 3.00000e-05 9.65000e-01 2.00000e-05 1.30000e-04 5.00000e-09 5.00000e-07 1.40000e-05 3.50000e-02 2.00000e-06 4.50000e-05
0.00000e+00 9.09180e+01 7.35300e+02 3.00000e-05 9.65000e-01 2.00000e-05 1.30000e-04 5.00000e-09 5.00000e-07 1.40000e-05 3.50000e-02 2.00000e-06 4.50000e-05
